"Time (s)","Linear Acceleration x (m/s^2)","Linear Acceleration y (m/s^2)","Linear Acceleration z (m/s^2)","Absolute acceleration (m/s^2)"
2.630503125,-13.60276486,-11.48253523,1.113995739,17.83605375
2.640562125,-14.41403679,-11.88957628,1.08101218,18.7161713
2.650621125,-14.21518234,-11.94403257,0.706966964,18.58039627
2.660680125,-13.28187434,-11.76489376,0.1541998476,17.74386341
2.670740125,-11.90682557,-11.43963304,-0.3059883034,16.51457925
2.680799125,-10.19021754,-11.05667082,-0.6729426008,15.05135724
2.690858125,-8.319777449,-10.44751023,-1.035865243,13.39560314
2.700917125,-6.887427716,-9.795483702,-1.092106102,12.02417803
2.710976125,-5.865598714,-9.158608482,-1.071061388,10.92851912
2.721036125,-4.866820605,-8.493961911,-1.02663249,9.843134969
2.731095125,-3.772645758,-7.810489059,-0.9186928886,8.72241893
2.741154125,-2.375119117,-6.900156519,-0.779073658,7.33895814
2.751213125,-0.5965369608,-5.777620338,-0.7738596958,5.859659712
2.761272125,1.607268898,-4.370935203,-0.5434905088,4.688685294
2.771331125,4.085584939,-2.490279445,-0.3166302359,4.795179946
2.781391125,6.507395536,-0.2532850099,-0.3474678665,6.521585994
2.791450125,8.536554784,1.785481213,-0.1097148156,8.721969277
2.801509125,10.43857919,3.918138517,-0.025416677,11.14972605
2.811568125,12.23188281,5.825711932,-0.02426886857,13.54837502
2.821627125,13.78744098,7.468667849,-0.03026928127,15.68041595
2.831687125,15.19640243,8.882415251,-0.1556394321,17.60261831
2.841746125,16.09483297,9.830267619,-0.3782341611,18.86321475
2.851805125,16.31291072,10.18243021,-0.7522425395,19.24470863
2.861864125,15.71472536,9.987485214,-1.264278536,18.6628201
2.871923125,14.8252282,9.353824208,-1.714204239,17.61306091
2.881983125,13.82346217,8.41634597,-1.875428347,16.29233615
2.892042125,12.57257902,7.128306103,-1.733928652,14.55640751
2.902101125,11.28794924,5.582325674,-1.551423018,12.68806807
2.912160125,9.975886678,3.961992635,-1.34016604,10.81719676
2.922219125,8.787689188,2.402218038,-1.083794285,9.174352447
2.932278125,7.649689459,0.9326969701,-0.8371195525,7.751673471
2.942338125,6.317304309,-0.4221216077,-0.6137401271,6.361068882
2.952397125,4.98458119,-1.774842204,-0.2985412896,5.299551055
2.962456125,3.721729082,-3.058726455,-0.03052421987,4.817468901
2.972515125,2.393992322,-4.212432389,0.18521231,4.848720395
2.982574125,0.8642136495,-5.273718402,0.3035903603,5.352675791
2.992634125,-0.9136321235,-6.356632681,0.2587264287,6.427164388
3.002693125,-3.243255225,-7.44523864,0.08091435492,8.12138104
3.012752125,-5.884515041,-8.342252392,-0.09444832027,10.20929051
3.022810458,-8.455196625,-9.215207191,-0.2957170844,12.50990976
3.032869458,-10.87880319,-10.08877419,-0.5392805135,14.8466342
3.042928458,-12.82002967,-10.73346246,-0.6482006925,16.73261908
3.052988458,-14.02754753,-11.23896829,-0.6582935715,17.98665751
3.063047458,-14.44350325,-11.63314781,-0.7637638932,18.56147218
3.073106458,-13.97622184,-11.62334904,-0.8290696907,18.19682325
3.083165458,-12.80850364,-11.25274901,-0.8103001285,17.06864705
3.093224458,-11.15672135,-10.7926585,-0.6713129818,15.53719956
3.103284458,-9.048526461,-10.24977611,-0.6131162292,13.68611168
3.113343458,-6.83970508,-9.481648436,-0.5335069728,11.70332655
3.123402458,-5.031858852,-8.509654668,-0.5358329952,9.900552665
3.133461458,-3.58266212,-7.60390693,-0.6949076664,8.434320668
3.143520458,-2.349777139,-6.784416148,-0.7284730232,7.216677076
3.153579458,-1.142575759,-5.756735837,-0.5901431036,5.898623208
3.163639458,0.3945798332,-4.325642086,-0.5103818196,4.373484
3.173698458,2.403194377,-2.604700685,-0.2995475954,3.556618848
3.183757458,4.749935349,-0.6464436042,0.1791411459,4.797068553
3.193816458,7.279327989,1.405517446,0.6881319129,7.445644418
3.203875458,9.994989531,3.696687503,0.9170445585,10.69608737
3.213935458,12.21425345,5.984231703,0.6572059894,13.61730282
3.223994458,13.60048795,7.702601498,0.2670587111,15.63248741
3.234053458,14.62650707,8.874527941,-0.06918600976,17.10838221
3.244112458,15.16772652,9.691060617,-0.3181984591,18.00216192
3.254171458,15.36312409,9.980950366,-0.5472046602,18.3287857
3.264230458,15.22392996,9.978848877,-0.75480362,18.21853992
3.274290458,14.80748658,9.671861284,-0.9747402048,17.71317809
3.284349458,14.00820261,8.649846341,-1.318966375,16.51633295
3.294408458,12.75687156,7.391143709,-1.564810218,14.82617308
3.304467458,11.44879913,6.104130614,-1.607307197,13.07359356
3.314526458,10.15039917,4.625250492,-1.480040209,11.25229152
3.324586458,8.993006564,3.025763946,-1.178329144,9.561269481
3.334645458,7.794090543,1.520168481,-0.706139583,7.972289051
3.344704458,6.384295274,0.01951508224,-0.2258948976,6.38832024
3.354763458,4.956459591,-1.464208288,0.1227120066,5.169666897
3.364822458,3.57222601,-2.888626274,0.1802345753,4.597547707
3.374881458,1.972929206,-4.189047035,0.07464964807,4.630997439
3.384941458,0.2033983201,-5.472974555,-0.06034209609,5.477085222
3.395000458,-1.552725485,-6.703895895,-0.329469552,6.889247186
3.405059458,-3.770515618,-7.968059826,-0.859076432,8.856905653
3.415118458,-6.594572259,-9.431800337,-1.275837897,11.5790761
3.425177458,-9.783346052,-10.97459228,-1.29530971,14.75917894
3.435237458,-12.91376639,-12.34980595,-0.8669233954,17.8895116
3.445296458,-15.6002626,-13.51321007,-0.3152391833,20.64157008
3.455355458,-17.47916127,-14.57165083,0.03944648623,22.75644179
3.465414458,-18.07115794,-15.28217407,0.1408769667,23.66709615
3.475473458,-17.40965542,-15.36421402,-0.03547856569,23.21974231
3.485532458,-15.77240931,-15.05695687,-0.1601926589,21.80611169
3.495592458,-13.07683939,-14.55799875,-0.2958100551,19.57106434
3.505651458,-9.659572776,-13.62361837,-0.4974354994,16.70801501
3.515710458,-6.367152407,-12.19477287,-0.5519169313,13.76799649
3.525769458,-3.414542976,-10.35252104,-0.258690176,10.9041605
3.535828458,-0.7162591399,-8.155673588,0.1929510999,8.189338737
3.545887458,2.10952645,-5.725702325,0.6167713237,6.133039689
3.555947458,5.150545635,-2.877259287,0.971780929,5.979222317
3.566006458,8.27651507,0.2860329258,1.144251571,8.360133265
3.576065458,10.80606734,3.338781772,1.145971822,11.36801682
3.586124458,12.93400594,5.94938756,1.21035376,14.28806069
3.596183458,14.72165062,7.956706873,1.302317013,16.78488043
3.606243458,16.27949505,9.540677832,1.070877201,18.89955742
3.616302458,17.55765897,10.73441907,0.6253217071,20.58859317
3.626361458,18.0060644,11.35924668,0.01991883248,21.28969791
3.636420458,17.5574742,11.34711137,-0.6053046414,20.91382869
3.646479458,16.60044521,10.70681787,-1.341308001,19.7992383
3.656538458,15.18495476,9.456370922,-1.889067562,17.98817329
3.666598458,13.61521943,7.814906046,-2.193454898,15.85112617
3.676657458,11.89588426,5.922827752,-2.219885482,13.47292998
3.686716458,10.02219896,4.00557778,-1.752445614,10.93435828
3.696775458,8.148193245,2.007792937,-0.9327045715,8.443590673
3.706834458,6.349204963,0.1360348874,-0.1162677902,6.351726329
3.716893458,4.664810414,-1.538257427,0.1933446175,4.915696721
3.726953458,3.133022054,-3.011060538,0.1853000182,4.349327402
3.737012458,1.622819275,-4.286259919,0.0330303365,4.58330203
3.747071458,-0.2846427503,-5.28314119,-0.2139484513,5.295127597
3.757130458,-2.494077504,-6.304362082,-0.7528132278,6.821446446
3.767189458,-4.850545758,-7.274933222,-1.431197248,8.860066201
3.777249458,-7.193762174,-8.219654991,-1.602233568,11.03993183
3.787308458,-9.547172334,-9.358075719,-1.173905725,13.42013917
3.797367458,-11.69093116,-10.54066807,-0.5712425637,15.75150383
3.807426458,-13.61639706,-11.7474445,-0.1698633689,17.98437029
3.817485458,-15.12545115,-12.62467303,0.1700662673,19.70255222
3.827544458,-15.72553452,-13.29560477,0.3498079222,20.59582258
3.837604458,-15.46704783,-13.62673259,0.3959091246,20.61732654
3.847663458,-14.62673745,-13.50736052,0.3853432059,19.91328014
3.857722458,-13.37547774,-13.41822907,0.3810332233,18.94986708
3.867781458,-11.59771836,-13.09038504,0.3017864943,17.49160733
3.877840458,-9.460603137,-12.42427375,0.1148814154,15.61661895
3.887899458,-7.224654769,-11.61118567,-0.0952897346,13.6756846
3.897959458,-4.841924331,-10.35896584,-0.2435429639,11.43729503
3.908018458,-2.056802252,-8.687731621,-0.3319744992,8.934054135
3.918077458,1.149169372,-6.64795149,-0.1484689915,6.748176962
3.928136458,4.742965761,-4.079242757,0.09553063989,6.256602255
3.938195458,8.102881417,-1.108482984,0.3741984129,8.186907
3.948254458,11.18220118,1.894727667,0.5989548576,11.35739244
3.958314458,13.81239456,4.709365613,0.6428230083,14.60731287
3.968373458,16.0279034,7.155464081,0.5121617121,17.56008722
3.978432458,17.74167553,9.148809133,0.1663357437,19.96235023
3.988491458,18.37896824,10.60182527,-0.3780429572,21.22093516
3.998550458,18.40463284,11.55700069,-1.116084364,21.76098387
4.008609458,18.36774626,11.71851482,-1.633981025,21.84874336
4.01866975,17.91724519,11.61388006,-1.977876828,21.44345779
4.02872875,17.03830694,10.89445736,-2.390777961,20.36440335
4.03878775,15.83409743,9.703015249,-2.478137702,18.73521585
4.04884675,14.48876538,8.265020029,-2.009821921,16.80101968
4.05890575,13.02512427,6.407507551,-1.370577993,14.58041492
4.06896475,11.47492098,4.334859636,-0.7500363851,12.28931952
4.07902475,9.964764104,2.404584407,-0.2518033254,10.25387511
4.08908375,8.479516364,0.6200241297,0.1452009827,8.503394088
4.09914275,7.043007506,-1.152438843,0.4319683188,7.149731928
4.10920175,5.657040226,-2.794507152,0.8588641781,6.367811399
4.11926075,4.480062081,-4.162804731,1.226998444,6.237421315
4.12931975,3.515015098,-5.313412811,1.392607963,6.521276238
4.13937975,2.413643205,-6.270361692,1.324269215,6.848123701
4.14943875,1.070777214,-7.195841444,1.16587399,7.367900657
4.15949775,-0.6043579772,-8.273263434,0.9343850613,8.347766878
4.16955675,-2.781339222,-9.60478495,0.4671194404,10.01029182
4.17961575,-6.28375357,-11.35972031,-0.1267243659,12.98248295
4.18967575,-10.74651579,-13.35437163,-0.6317407805,17.15301547
4.19973475,-15.00150187,-15.09962049,-0.8278862143,21.30091531
4.20979375,-18.09102327,-16.37251256,-0.4350001001,24.40355539
4.21985275,-19.23071811,-17.1975313,0.1623309857,25.79926265
4.22991175,-18.33884465,-17.31519833,0.324643845,25.22369342
4.23997075,-16.35830733,-16.78405363,0.03012953281,23.4371411
4.25003075,-13.4316917,-16.18402873,-0.4476172221,21.03647996
4.26008975,-9.870853143,-15.3406778,-1.025729679,18.27080345
4.27014875,-6.76529049,-14.23271347,-1.596629012,15.8394606
4.28020775,-4.698334548,-13.15424249,-1.954082168,14.10414407
4.29026675,-3.354066394,-12.19056755,-1.807551529,12.77211577
4.30032575,-2.018602246,-11.08378669,-1.374714898,11.34966623
4.31038575,-0.1007259275,-9.604236481,-0.8466405737,9.642007279
4.32044475,2.199371257,-7.718310628,-0.5537839472,8.044639801
4.33050375,4.564583583,-5.397827309,-0.5873943275,7.093447331
4.34056275,7.121536197,-2.736781685,-0.9135894388,7.683807484
4.35062175,9.510827796,0.3130722052,-1.10283165,9.579671039
4.36068075,11.82507681,3.439283715,-1.104218025,12.36448186
4.37074075,13.89815684,6.370749614,-1.187584702,15.33478306
4.38079975,15.75791289,8.924170802,-1.339185754,18.15891136
4.39085875,17.25831661,11.22393276,-1.596872841,20.64887798
4.40091775,18.38687835,12.78563752,-1.836909229,22.4705153
4.41097675,18.92945786,13.66191178,-2.046660257,23.434185
4.42103575,18.91056317,14.02781066,-2.086777711,23.63775608
4.43109575,18.44942602,13.61438328,-2.022920853,23.01792695
4.44115475,17.45992042,12.68882751,-2.08476276,21.68412785
4.45121375,15.92820369,11.32429905,-2.036129129,19.64925555
4.46127275,13.96545478,9.269204473,-1.6757816,16.84518693
4.47133175,11.95944466,6.950720901,-0.9974706709,13.86851778
4.48139075,10.18017319,4.614972256,-0.2925408769,11.18121081
4.49145075,8.57127672,2.439650744,0.2064967597,8.91410799
4.50150975,7.155743578,0.480489099,0.6103124893,7.197778634
4.51156875,5.745078244,-1.295069389,0.7910043168,5.942122228
4.52162775,4.467271297,-2.815676996,0.8454383862,5.347832818
4.53168675,3.511510277,-4.099855362,0.9012980068,5.472828931
4.54174575,2.713112448,-5.322999321,1.051886614,6.066445942
4.55180575,1.46661471,-6.501674035,0.9992704439,6.739530057
4.56186475,-0.04887687564,-7.31648646,0.7745011353,7.357527783
4.57192375,-1.201008155,-7.809702609,0.4378359997,7.913632275
4.58198275,-2.216253484,-8.142142546,0.102164306,8.438998892
4.59204175,-2.947880495,-8.311683733,-0.1616380906,8.82044289
4.60210075,-3.938465778,-8.447304053,-0.3947320801,9.328680071
4.61216075,-5.544328712,-9.212114598,-0.4218315858,10.76013839
4.62221975,-7.824254574,-10.34789005,-0.2692052239,12.97575661
4.63227875,-10.24411249,-11.40207988,-0.007742882967,15.32805683
4.64233775,-12.28487846,-12.46196607,0.3637979704,17.50289079
4.65239675,-14.02094135,-13.38702833,0.5705461603,19.3939384
4.66245575,-14.92036357,-14.00205367,0.6188049853,20.47089826
4.67251575,-14.66103254,-14.02798841,0.79809582,20.30682868
4.68257475,-13.2788794,-13.73805189,1.075261443,19.13684652
4.69263375,-11.11350809,-13.55206131,1.445998889,17.58577097
4.70269275,-8.635459267,-13.3189492,1.690838181,15.9632233
4.71275175,-6.258162646,-12.63727612,1.641371321,14.19716335
4.72281075,-4.493193758,-11.59790781,1.550833619,12.53416693
4.73287075,-2.999195952,-10.49949548,1.31941281,10.99888321
4.74292975,-1.43944226,-9.176648312,1.120724714,9.356222108
4.75298875,0.4736224579,-7.541154027,0.996928634,7.621495194
4.76304775,3.030608949,-5.368307056,0.6758650392,6.201621143
4.77310675,5.42275165,-2.830267553,0.3482987559,6.12682315
4.78316575,7.741771996,-0.1252105218,0.07381846637,7.743136346
4.79322575,9.930052693,2.711032301,-0.2111391565,10.29564094
4.80328475,11.75716725,5.226979854,-0.4623522055,12.87501727
4.81334375,13.36173327,7.543522149,-0.7984098154,15.36483325
4.82340275,14.87717603,9.486595765,-1.241919076,17.68808155
4.83346175,15.94680719,11.03237914,-1.748470092,19.46975082
4.84352075,16.24007429,12.00857764,-2.398329055,20.33956569
4.85358075,16.02111361,12.19505354,-3.058638162,20.36542854
4.86363975,15.55996008,11.83321146,-3.707869426,19.89687279
4.87369875,14.9105192,11.04865077,-4.23250705,19.03445252
4.88375775,14.02133662,9.909339516,-4.517664648,17.75393433
4.89381675,12.79487846,8.461166047,-4.537526762,15.99654321
4.90387575,11.27511811,6.648442072,-4.234454173,13.75720439
4.91393575,9.735257966,4.563652414,-3.636115904,11.35004449
4.92399475,8.405135688,2.631712482,-2.945937758,9.28712904
4.93405375,7.356539302,0.9412742507,-2.447582199,7.80995047
4.94411275,6.483746472,-0.7108705652,-2.165202321,6.872583675
4.95417175,5.603065163,-2.230749024,-2.030857864,6.36356536
4.96423075,4.45131366,-3.641890907,-1.618655765,5.974747624
4.97428975,3.163446287,-5.113041009,-1.33646446,6.159279018
4.98434975,1.724012066,-6.395708454,-1.229081514,6.737057637
4.99440875,0.1691038156,-7.68323552,-1.44009057,7.818859572
5.00446775,-1.975158165,-8.98667169,-1.85412314,9.386122227
5.01452675,-4.88618366,-10.33257502,-2.191312478,11.63781542
5.024585708,-8.156841277,-11.93284685,-2.331136361,14.64107545
5.034644708,-11.57184677,-13.41329051,-2.049039781,17.83318715
5.044704708,-14.41171662,-14.73272408,-1.252608663,20.64751228
5.054763708,-16.34833549,-16.1693452,-0.4231969106,22.99771496
5.064822708,-17.48810868,-17.17981774,0.2419554448,24.51608911
5.074881708,-17.42699008,-17.7272025,0.4997890037,24.86369805
5.084940708,-16.00637629,-17.83429542,0.3991063821,23.96717466
5.094999708,-13.31010353,-17.62067559,0.2701916492,22.08438515
5.105059708,-9.91813022,-16.71365549,0.06213485241,19.43500573
5.115118708,-6.649703316,-15.42179739,-0.1623602217,16.79514066
5.125177708,-3.711820975,-13.68536964,-0.07418830276,14.18000216
5.135236708,-0.9684847804,-11.48268725,0.4879682726,11.53378439
5.145295708,1.966742121,-8.74755273,1.009601305,9.022585446
5.155354708,5.115833055,-5.652178851,1.264403667,7.727715719
5.165414708,8.791367086,-2.071152197,1.206044362,9.112208825
5.175473708,12.51479566,2.000891469,0.8096607354,12.69957588
5.185532708,15.82071199,6.031176658,0.3053360465,16.93408544
5.195591708,17.73400866,9.704935475,-0.1530242649,20.2164352
5.205650708,18.56652119,12.39160301,-0.6117877418,22.33028926
5.215709708,18.73824456,14.0293017,-1.037576138,23.43116897
5.225769708,18.47594314,15.30794041,-1.645206217,24.04995256
5.235828708,18.11268253,15.45539316,-2.439144959,23.93507623
5.245887708,17.55142233,14.7320879,-2.945972841,23.10336763
5.255946708,16.11776224,13.28666906,-3.208433302,21.13319376
5.266005708,14.31715077,11.2029167,-3.28183457,18.47313148
5.276064708,12.42766981,8.906999869,-3.170569072,15.61518914
5.286123708,10.35727249,6.429113013,-2.735305263,12.49353763
5.296183708,8.297729938,3.735963836,-1.841247863,9.284392366
5.306242708,6.557249481,1.183481711,-0.959905234,6.73198097
5.316301708,5.126514164,-1.084746212,-0.3993847096,5.255219307
5.326360708,3.623064626,-3.066719599,-0.0700519824,4.74723853
5.336419708,1.972687424,-4.784968942,0.04367753148,5.175841108
5.346478708,0.2037250333,-6.477826166,-0.1344444448,6.482423238
5.356538708,-2.036229701,-8.180126059,-0.5848116124,8.450011737
5.366597708,-4.775427163,-9.39629312,-1.114910243,10.59896475
5.376656708,-7.519300643,-10.57206995,-1.705905871,13.08505484
5.386715708,-10.42634565,-11.84988538,-2.377998871,15.96193427
5.396774708,-13.40370693,-13.44259793,-2.851919208,19.19625593
5.406833708,-16.16408271,-15.62486535,-2.930230383,22.67157333
5.416893708,-18.44157672,-17.8563862,-2.73556371,25.8152201
5.426952708,-20.25789848,-19.54458846,-2.282107458,28.24148373
5.437011708,-20.46595879,-20.03382382,-1.409237444,28.67395188
5.447070708,-18.0762345,-19.88676869,-0.4253562874,26.87777428
5.457129708,-13.31141097,-19.33110311,0.1095464158,23.47119958
5.467188708,-7.192482803,-18.14364821,0.1663146937,19.51797735
5.477248708,-0.9474267641,-15.64674914,-0.3476304191,15.67926092
5.487307708,4.395161387,-12.1389764,-0.749683798,12.93190695
5.497366708,7.919654236,-8.120802548,-0.692573458,11.36433083
5.507425708,9.713949543,-4.132253614,-0.3917125779,10.56360613
5.517484708,10.61199825,-0.4135127521,0.1130956757,10.62065395
5.527543708,11.99764218,3.079896884,0.5953430325,12.40095222
5.537602708,14.37894181,6.480457998,0.9574938422,15.8008575
5.547662708,17.08159739,9.748487876,1.068540069,19.69659267
5.557721708,19.13582716,12.64717896,0.8627420515,22.95376528
5.567780708,20.14737441,14.4322649,0.2831116569,24.78481628
5.577839708,19.84313443,15.28305934,-0.4983517581,25.05135208
5.587898708,18.83405469,15.1229158,-1.259339393,24.18698274
5.597957708,17.5545389,14.08123199,-1.975244411,22.59080611
5.608016708,16.22711102,12.81024845,-2.233739875,20.79449906
5.618076708,14.81274089,11.26138184,-2.111385718,18.72682469
5.628135708,13.35134043,9.344462816,-1.772689844,16.39267232
5.638194708,11.95502767,7.271817825,-1.379093878,14.06072264